#
# SDSS r Filter - Y4KCam Filter Set
# Factory Raw Transmission Curve
# 2006 February 22 [rwp/osu]
#
#lam[nm] Tx      
540     0.000   
541     0.001   
542     0.003   
543     0.007   
544     0.013   
545     0.023   
546     0.040   
547     0.064   
548     0.095   
549     0.132   
550     0.177   
551     0.229   
552     0.283   
553     0.332   
554     0.374   
555     0.418   
556     0.463   
557     0.506   
558     0.545   
559     0.580   
560     0.611   
561     0.639   
562     0.668   
563     0.698   
564     0.729   
565     0.760   
566     0.788   
567     0.813   
568     0.832   
569     0.847   
570     0.862   
571     0.876   
572     0.887   
573     0.893   
574     0.895   
575     0.895   
576     0.897   
577     0.901   
578     0.906   
579     0.909   
580     0.908   
581     0.904   
582     0.895   
583     0.882   
584     0.867   
585     0.852   
586     0.839   
587     0.830   
588     0.827   
589     0.829   
590     0.834   
591     0.844   
592     0.856   
593     0.868   
594     0.877   
595     0.881   
596     0.880   
597     0.878   
598     0.875   
599     0.873   
600     0.872   
601     0.871   
602     0.872   
603     0.876   
604     0.884   
605     0.894   
606     0.906   
607     0.920   
608     0.929   
609     0.931   
610     0.926   
611     0.916   
612     0.905   
613     0.898   
614     0.898   
615     0.906   
616     0.920   
617     0.936   
618     0.951   
619     0.962   
620     0.968   
621     0.971   
622     0.970   
623     0.970   
624     0.970   
625     0.969   
626     0.967   
627     0.962   
628     0.954   
629     0.945   
630     0.935   
631     0.925   
632     0.917   
633     0.911   
634     0.907   
635     0.905   
636     0.903   
637     0.902   
638     0.903   
639     0.903   
640     0.905   
641     0.908   
642     0.911   
643     0.917   
644     0.926   
645     0.934   
646     0.941   
647     0.946   
648     0.946   
649     0.941   
650     0.932   
651     0.921   
652     0.910   
653     0.903   
654     0.902   
655     0.905   
656     0.912   
657     0.919   
658     0.927   
659     0.935   
660     0.942   
661     0.948   
662     0.954   
663     0.958   
664     0.959   
665     0.960   
666     0.958   
667     0.955   
668     0.949   
669     0.942   
670     0.937   
671     0.934   
672     0.935   
673     0.938   
674     0.944   
675     0.950   
676     0.953   
677     0.953   
678     0.948   
679     0.939   
680     0.928   
681     0.916   
682     0.904   
683     0.895   
684     0.892   
685     0.896   
686     0.905   
687     0.918   
688     0.931   
689     0.933   
690     0.908   
691     0.849   
692     0.761   
693     0.629   
694     0.445   
695     0.268   
696     0.140   
697     0.070   
698     0.037   
699     0.019   
700     0.004   
701     0.000

