#
# SDSS u filter - Y4KCam Filter Set
# Factory Raw Transmission Curve
# 2006 Feb 22 [rwp/osu]
#
#lam[nm] Tx      
300     0.000   
301     0.000   
302     0.000   
303     0.001   
304     0.001   
305     0.002   
306     0.003   
307     0.004   
308     0.007   
309     0.010   
310     0.015   
311     0.020   
312     0.028   
313     0.036   
314     0.046   
315     0.059   
316     0.071   
317     0.085   
318     0.101   
319     0.117   
320     0.133   
321     0.151   
322     0.171   
323     0.189   
324     0.209   
325     0.230   
326     0.251   
327     0.270   
328     0.290   
329     0.310   
330     0.328   
331     0.346   
332     0.365   
333     0.382   
334     0.400   
335     0.415   
336     0.431   
337     0.444   
338     0.457   
339     0.468   
340     0.478   
341     0.489   
342     0.499   
343     0.510   
344     0.522   
345     0.533   
346     0.541   
347     0.549   
348     0.555   
349     0.558   
350     0.562   
351     0.563   
352     0.564   
353     0.568   
354     0.571   
355     0.576   
356     0.584   
357     0.591   
358     0.598   
359     0.602   
360     0.604   
361     0.604   
362     0.602   
363     0.597   
364     0.590   
365     0.585   
366     0.578   
367     0.571   
368     0.566   
369     0.560   
370     0.554   
371     0.545   
372     0.536   
373     0.523   
374     0.508   
375     0.490   
376     0.467   
377     0.443   
378     0.419   
379     0.389   
380     0.363   
381     0.334   
382     0.309   
383     0.279   
384     0.252   
385     0.223   
386     0.194   
387     0.168   
388     0.141   
389     0.117   
390     0.093   
391     0.073   
392     0.056   
393     0.041   
394     0.030   
395     0.022   
396     0.016   
397     0.011   
398     0.008   
399     0.005   
400     0.003   
401     0.002   
402     0.001   
403     0.000   
404     0.000   

